# Individual psuedo-acceleration response spectra in units of cm/s2 computed by the
# SCEC broadband platform for the ground motion.
# Period (s),PSA NS (cm/s2),PSA EW (cm/s2),PSA UD (cm/s2)
2.000000e+01,8.994800e-04,1.059400e-03,7.684800e-04
1.499900e+01,1.603100e-03,1.765500e-03,1.442100e-03
1.400000e+01,1.847200e-03,1.991000e-03,1.686200e-03
1.300100e+01,2.155100e-03,2.259200e-03,1.995900e-03
1.200000e+01,2.549900e-03,2.590400e-03,2.404300e-03
1.100000e+01,3.079500e-03,3.173900e-03,2.954500e-03
1.000000e+01,3.814800e-03,3.961800e-03,3.718800e-03
9.500300e+00,4.295700e-03,4.448500e-03,4.217200e-03
9.000100e+00,4.882400e-03,5.009700e-03,4.819400e-03
8.499800e+00,5.606600e-03,5.653800e-03,5.556800e-03
8.000000e+00,6.519000e-03,6.397500e-03,6.465400e-03
7.500200e+00,7.688300e-03,7.255800e-03,7.594800e-03
6.999900e+00,9.211800e-03,8.247700e-03,9.011500e-03
6.499800e+00,1.122100e-02,9.416300e-03,1.079200e-02
5.999900e+00,1.390800e-02,1.083900e-02,1.303400e-02
5.499900e+00,1.751500e-02,1.298700e-02,1.578700e-02
5.000000e+00,2.237100e-02,1.699000e-02,1.907700e-02
4.800100e+00,2.472300e-02,1.909000e-02,2.049000e-02
4.600000e+00,2.733600e-02,2.154500e-02,2.193800e-02
4.400100e+00,3.022100e-02,2.439800e-02,2.336500e-02
4.199900e+00,3.339600e-02,2.769100e-02,2.633100e-02
4.000000e+00,3.955100e-02,3.147800e-02,3.207700e-02
3.800000e+00,4.827700e-02,3.700700e-02,3.876000e-02
3.600000e+00,5.871100e-02,4.526300e-02,4.634600e-02
3.400000e+00,7.086400e-02,5.572100e-02,5.465500e-02
3.200000e+00,8.451900e-02,6.875100e-02,6.345000e-02
3.000000e+00,9.957500e-02,8.433200e-02,7.234000e-02
2.800000e+00,1.153500e-01,1.021400e-01,8.094300e-02
2.600000e+00,1.333000e-01,1.246800e-01,8.921500e-02
2.400000e+00,1.571500e-01,1.698500e-01,9.787500e-02
2.200000e+00,1.866900e-01,2.195700e-01,1.259200e-01
2.000000e+00,2.123900e-01,2.715900e-01,1.639100e-01
1.900000e+00,2.200400e-01,3.121900e-01,1.892700e-01
1.800000e+00,2.216700e-01,3.580300e-01,2.208400e-01
1.700000e+00,2.141200e-01,4.001600e-01,2.587600e-01
1.600000e+00,1.989900e-01,4.371300e-01,3.103800e-01
1.500000e+00,1.788800e-01,4.798500e-01,3.773900e-01
1.400000e+00,1.608000e-01,5.092400e-01,4.338800e-01
1.300000e+00,1.529500e-01,4.751500e-01,4.948500e-01
1.200000e+00,1.510200e-01,3.793200e-01,5.335000e-01
1.100000e+00,1.346800e-01,3.480100e-01,5.183600e-01
1.000000e+00,1.330500e-01,3.289500e-01,4.212200e-01
9.500000e-01,1.537600e-01,3.180400e-01,3.592200e-01
9.000000e-01,1.757000e-01,3.049000e-01,2.909500e-01
8.500000e-01,1.842400e-01,2.552700e-01,2.434700e-01
8.000000e-01,1.766700e-01,2.191000e-01,2.288900e-01
7.500000e-01,1.717300e-01,2.381800e-01,2.112300e-01
7.000000e-01,1.514300e-01,2.603600e-01,1.941900e-01
6.666700e-01,1.548200e-01,2.697800e-01,1.932600e-01
6.500000e-01,1.560200e-01,2.737700e-01,1.961800e-01
6.000000e-01,1.680600e-01,2.993900e-01,2.052500e-01
5.500000e-01,2.314700e-01,3.226800e-01,2.242400e-01
5.000000e-01,2.334100e-01,3.274500e-01,1.858100e-01
4.800000e-01,2.070700e-01,3.242400e-01,1.722400e-01
4.600000e-01,1.712000e-01,3.150200e-01,1.832600e-01
4.400000e-01,1.599100e-01,3.637900e-01,1.974300e-01
4.200000e-01,1.791000e-01,3.359200e-01,1.843800e-01
4.000000e-01,2.024700e-01,3.221800e-01,1.815000e-01
3.800000e-01,2.174900e-01,3.608700e-01,2.116300e-01
3.600000e-01,2.050700e-01,4.153900e-01,1.953500e-01
3.400000e-01,1.795000e-01,4.342600e-01,1.801000e-01
3.200000e-01,1.829300e-01,4.637100e-01,2.103300e-01
3.000000e-01,2.062800e-01,4.117800e-01,1.990000e-01
2.898600e-01,2.178700e-01,3.570300e-01,1.971000e-01
2.800000e-01,2.368700e-01,3.439300e-01,1.832900e-01
2.600000e-01,2.676100e-01,3.027700e-01,2.056100e-01
2.400000e-01,2.900400e-01,3.056200e-01,1.842800e-01
2.200000e-01,2.734800e-01,3.120500e-01,2.271700e-01
2.000000e-01,2.966800e-01,3.032300e-01,2.169300e-01
1.900000e-01,3.083000e-01,3.229900e-01,1.914400e-01
1.800000e-01,2.752100e-01,4.058300e-01,1.971400e-01
1.700000e-01,2.254900e-01,3.488200e-01,1.928500e-01
1.600000e-01,1.981500e-01,2.587900e-01,1.767200e-01
1.500000e-01,2.169700e-01,2.794400e-01,1.850700e-01
1.400000e-01,3.060200e-01,2.796600e-01,1.724900e-01
1.333300e-01,3.383800e-01,3.134200e-01,1.721800e-01
1.300000e-01,3.598100e-01,3.141500e-01,1.763800e-01
1.200000e-01,4.386400e-01,4.282400e-01,1.860600e-01
1.100000e-01,3.108900e-01,3.568300e-01,1.718600e-01
1.000000e-01,2.702400e-01,3.670100e-01,1.648200e-01
9.500000e-02,2.580600e-01,3.345500e-01,1.696300e-01
9.000000e-02,2.518000e-01,3.405700e-01,1.652600e-01
8.500000e-02,2.826100e-01,3.267600e-01,1.681300e-01
8.000000e-02,2.563700e-01,2.809600e-01,1.702400e-01
7.500000e-02,2.262000e-01,2.444100e-01,1.630900e-01
7.000000e-02,2.207300e-01,2.488300e-01,1.592600e-01
6.666700e-02,1.927600e-01,2.585200e-01,1.494100e-01
6.500000e-02,1.911000e-01,2.813400e-01,1.480900e-01
6.000000e-02,1.963800e-01,2.892500e-01,1.451700e-01
5.500000e-02,1.827000e-01,2.279600e-01,1.484900e-01
5.000000e-02,1.673400e-01,2.441800e-01,1.508400e-01
4.800000e-02,1.593600e-01,2.412300e-01,1.510100e-01
4.600000e-02,1.610200e-01,2.325700e-01,1.519200e-01
4.400000e-02,1.706300e-01,2.318400e-01,1.523200e-01
4.200000e-02,1.720300e-01,2.238100e-01,1.521800e-01
4.000000e-02,1.688900e-01,2.174700e-01,1.516800e-01
3.571400e-02,1.510700e-01,2.072900e-01,1.464800e-01
3.225800e-02,1.430200e-01,2.243100e-01,1.456700e-01
2.941200e-02,1.409600e-01,2.134300e-01,1.476500e-01
2.500000e-02,1.355800e-01,1.963400e-01,1.461400e-01
2.222200e-02,1.380800e-01,1.960800e-01,1.460300e-01
2.000000e-02,1.371100e-01,2.054200e-01,1.471100e-01
1.818200e-02,1.439000e-01,2.023900e-01,1.450200e-01
1.666700e-02,1.422500e-01,2.057100e-01,1.467000e-01
1.538500e-02,1.422800e-01,2.034500e-01,1.467000e-01
1.428600e-02,1.368600e-01,2.022100e-01,1.457200e-01
1.333300e-02,1.361400e-01,1.998300e-01,1.463300e-01
1.250000e-02,1.348600e-01,1.962100e-01,1.460900e-01
1.176500e-02,1.355300e-01,1.964000e-01,1.461200e-01
1.111100e-02,1.359100e-01,1.986700e-01,1.462500e-01
1.052600e-02,1.378500e-01,1.988500e-01,1.458000e-01
1.000000e-02,1.378500e-01,1.999000e-01,1.462200e-01
